theta,HH,VV
0.000000000000000,3.336572483317806e+01,3.336572483317800e+01
0.005227275629933,3.334745595464326e+01,3.334791414735881e+01
0.010454551259866,3.329257496558562e+01,3.329441121711875e+01
0.015681826889799,3.320085725759223e+01,3.320500198644606e+01
0.020909102519732,3.307192325049646e+01,3.307932483756684e+01
0.026136378149666,3.290523028295525e+01,3.291686306969536e+01
0.031363653779599,3.270006071655745e+01,3.271693388058553e+01
0.036590929409532,3.245550565581028e+01,3.247867331428728e+01
0.041818205039465,3.217044342898135e+01,3.220101640995917e+01
0.047045480669398,3.184351163656547e+01,3.188267148830816e+01
0.052272756299331,3.147307111570666e+01,3.152208711090918e+01
0.057500031929264,3.105715953143442e+01,3.111740969406990e+01
0.062727307559197,3.059343139901639e+01,3.066642897847900e+01
0.067954583189130,3.007908002476606e+01,3.016650743295265e+01
0.073181858819063,2.951073489810674e+01,2.961448802173222e+01
0.078409134448996,2.888432510105688e+01,2.900657229202140e+01
0.083636410078930,2.819489468795253e+01,2.833815694548115e+01
0.088863685708863,2.743634861981432e+01,2.760361109433708e+01
0.094090961338796,2.660109571208454e+01,2.679596676930206e+01
0.099318236968729,2.567953441397739e+01,2.590647920292049e+01
0.104545512598662,2.465929071762346e+01,2.492398576192514e+01
0.109772788228595,2.352404992027973e+01,2.383394286215802e+01
0.115000063858528,2.225169218933322e+01,2.261692742066998e+01
0.120227339488461,2.081116837202030e+01,2.124620662148217e+01
0.125454615118394,1.915694031487484e+01,1.968359835941791e+01
0.130681890748328,1.721830623863883e+01,1.787199648345783e+01
0.135909166378261,1.487677989672082e+01,1.572092567418405e+01
0.141136442008194,1.191139140868518e+01,1.307659830993948e+01
0.146363717638127,7.841009231817980e+00,9.658903521148423e+00
0.151590993268060,1.423911623678529e+00,5.010239887425536e+00
0.156818268897993,-3.496720366789119e+00,4.560953360365139e-01
0.162045544527926,3.631313986886690e+00,3.279355906673631e+00
0.167272820157859,7.844948941736113e+00,7.275455586595905e+00
0.172500095787792,1.041427132162672e+01,9.976945545693509e+00
0.177727371417725,1.213896369195199e+01,1.183149156433648e+01
0.182954647047658,1.334753649834685e+01,1.314748544442842e+01
0.188181922677592,1.420136359606471e+01,1.409188133990510e+01
0.193409198307525,1.479013871637516e+01,1.476033408702357e+01
0.198636473937458,1.516784911363109e+01,1.521120095957068e+01
0.203863749567391,1.536857204246457e+01,1.548173162676989e+01
0.209091025197324,1.541420853509734e+01,1.559628263645402e+01
0.214318300827257,1.531855280155775e+01,1.557074137194619e+01
0.219545576457190,1.508950373521073e+01,1.541500326913821e+01
0.224772852087123,1.473022387369583e+01,1.513436300568260e+01
0.230000127717056,1.423961170412518e+01,1.473023770609496e+01
0.235227403346989,1.361222704325548e+01,1.420042208194402e+01
0.240454678976923,1.283765701650131e+01,1.353895374538288e+01
0.245681954606856,1.189915631185940e+01,1.273558598718078e+01
0.250909230236789,1.077116756565226e+01,1.177480215474328e+01
0.256136505866722,9.414907765617311e+00,1.063426858867266e+01
0.261363781496655,7.770358530064890e+00,9.282708977734528e+00
0.266591057126588,5.741326222020245e+00,7.677857775867709e+00
0.271818332756521,3.168351348934524e+00,5.768541854297680e+00
0.277045608386454,-1.978402510795413e-01,3.520852276976276e+00
0.282272884016387,-4.373054309504410e+00,1.055968785431039e+00
0.287500159646321,-6.042830577515296e+00,-8.878151300046431e-01
0.292727435276254,-2.747443890455070e+00,-9.183139595281219e-01
0.297954710906187,5.128578719878444e-01,7.235707262808609e-01
0.303181986536120,2.871741976614991e+00,2.654924536479035e+00
0.308409262166053,4.582302040838796e+00,4.315608960523698e+00
0.313636537795986,5.844594748790037e+00,5.639742976476152e+00
0.318863813425919,6.779387222523265e+00,6.669940819937569e+00
0.324091089055852,7.460672217308353e+00,7.456402672853772e+00
0.329318364685785,7.935544878727477e+00,8.039208350650144e+00
0.334545640315718,8.234845524794965e+00,8.447846212583794e+00
0.339772915945652,8.378956213893529e+00,8.703450210603737e+00
0.345000191575585,8.381056044702284e+00,8.820870145298255e+00
0.350227467205518,8.248969232081691e+00,8.810166491559908e+00
0.355454742835451,7.986167877496966e+00,8.677599374774001e+00
0.360682018465384,7.592202964747473e+00,8.426232962281246e+00
0.365909294095317,7.062675124550496e+00,8.056246761290776e+00
0.371136569725250,6.388743737783717e+00,7.565009498582373e+00
0.376363845355183,5.556062980921639e+00,6.946944994534032e+00
0.381591120985116,4.542886229791351e+00,6.193210031210159e+00
0.386818396615049,3.316847515617289e+00,5.291232235916458e+00
0.392045672244982,1.829571487584638e+00,4.224290146157422e+00
0.397272947874916,7.994783699559438e-03,2.971779340134620e+00
0.402500223504849,-2.256498738409129e+00,1.512312732796816e+00
0.407727499134782,-5.095241765942808e+00,-1.633904402311523e-01
0.412954774764715,-8.394905279524131e+00,-2.008811934907037e+00
0.418182050394648,-1.031057890991803e+01,-3.801181373816674e+00
0.423409326024581,-8.503143222599245e+00,-4.974654306271137e+00
0.428636601654514,-5.667291977694432e+00,-4.924114480442587e+00
0.433863877284447,-3.347233081452720e+00,-3.854142618218980e+00
0.439091152914380,-1.588154913170026e+00,-2.452305356476551e+00
0.444318428544314,-2.572528404485719e-01,-1.126724044029737e+00
0.449545704174247,7.498561627790700e-01,-2.708129753748328e-03
0.454772979804180,1.503079137966112e+00,9.062653170670575e-01
0.460000255434113,2.048837810552073e+00,1.617587857634280e+00
0.465227531064046,2.418346475332929e+00,2.153188398684921e+00
0.470454806693979,2.632717488155652e+00,2.532294187086630e+00
0.475682082323912,2.706018073828491e+00,2.770006838293058e+00
0.480909357953845,2.647084668001853e+00,2.877479981414411e+00
0.486136633583778,2.460558834379503e+00,2.862414471342274e+00
0.491363909213711,2.147391654645142e+00,2.729495563824131e+00
0.496591184843645,1.704928463475250e+00,2.480672803706670e+00
0.501818460473578,1.126588028669856e+00,2.115259939861460e+00
0.507045736103511,4.010545549539434e-01,1.629843688820922e+00
0.512273011733444,-4.892306048886041e-01,1.017979098483238e+00
0.517500287363377,-1.570719539394015e+00,2.696299296157973e-01
0.522727562993310,-2.883446745798632e+00,-6.297044796794167e-01
0.527954838623243,-4.489619833689227e+00,-1.700217944393091e+00
0.533182114253176,-6.490058295768938e+00,-2.969253487878880e+00
0.538409389883109,-9.055907567831555e+00,-4.472059837700356e+00
0.543636665513042,-1.247173113749991e+01,-6.247586920916433e+00
0.548863941142976,-1.684715769476966e+01,-8.311537654411902e+00
0.554091216772909,-1.850606869727801e+01,-1.054039593769852e+01
0.559318492402842,-1.479621285151458e+01,-1.233649155153351e+01
0.564545768032775,-1.136955412617617e+01,-1.258592560997953e+01
0.569773043662708,-8.926389836297671e+00,-1.126614041574277e+01
0.575000319292641,-7.152804014688575e+00,-9.488821688421734e+00
0.580227594922574,-5.833898359045082e+00,-7.868902926187312e+00
0.585454870552507,-4.844323127494108e+00,-6.536577600735951e+00
0.590682146182440,-4.108274457160883e+00,-5.477526169998441e+00
0.595909421812373,-3.577733113128704e+00,-4.652820175428698e+00
0.601136697442307,-3.221241665294685e+00,-4.026973505087558e+00
0.606363973072240,-3.017894327078090e+00,-3.572406527799741e+00
0.611591248702173,-2.953985866699360e+00,-3.268743394926363e+00
0.616818524332106,-3.021107497653633e+00,-3.101364931113305e+00
0.622045799962039,-3.215098979602939e+00,-3.060184686348228e+00
0.627273075591972,-3.535570412744380e+00,-3.138788549897143e+00
0.632500351221905,-3.985874990729625e+00,-3.333903012477923e+00
0.637727626851838,-4.573530841490067e+00,-3.645143590542981e+00
0.642954902481771,-5.311208920082555e+00,-4.075020639841382e+00
0.648182178111704,-6.218581597887621e+00,-4.629217638792225e+00
0.653409453741638,-7.325668697447575e+00,-5.317207583406221e+00
0.658636729371571,-8.679086319813202e+00,-6.153349916702728e+00
0.663864005001504,-1.035456851714665e+01,-7.158742373571703e+00
0.669091280631437,-1.248495724577452e+01,-8.364347765006011e+00
0.674318556261370,-1.533399938764896e+01,-9.816390257746646e+00
0.679545831891303,-1.955147421478210e+01,-1.158589713574505e+01
0.684773107521236,-2.772964838472640e+01,-1.378532880227953e+01
0.690000383151169,-3.354796384945222e+01,-1.659022423261818e+01
0.695227658781102,-2.199403829918489e+01,-2.017630499488382e+01
0.700454934411035,-1.745322917563445e+01,-2.361948097174281e+01
0.705682210040968,-1.470196276158683e+01,-2.275033960177009e+01
0.710909485670902,-1.281017789091163e+01,-1.943878386435883e+01
0.716136761300835,-1.143846075999850e+01,-1.672192790338059e+01
0.721364036930768,-1.042527243560395e+01,-1.473491426773828e+01
0.726591312560701,-9.681860198971501e+00,-1.327610732359818e+01
0.731818588190634,-9.155109900024820e+00,-1.220129675232846e+01
0.737045863820567,-8.811681222476073e+00,-1.142094630084866e+01
0.742273139450500,-8.630361541476191e+00,-1.087918797703044e+01
0.747500415080433,-8.598098584917045e+00,-1.054077072688458e+01
0.752727690710366,-8.707894741570088e+00,-1.038381924348685e+01
0.757954966340299,-8.957772977188423e+00,-1.039587645111897e+01
0.763182241970233,-9.350475420487147e+00,-1.057183456874366e+01
0.768409517600166,-9.893799680076356e+00,-1.091306799893796e+01
0.773636793230099,-1.060166781245369e+01,-1.142747325643298e+01
0.778864068860032,-1.149626056073354e+01,-1.213035377172179e+01
0.784091344489965,-1.261197544037083e+01,-1.304621926349793e+01
0.789318620119898,-1.400289507589422e+01,-1.421147779169001e+01
0.794545895749831,-1.575774015662861e+01,-1.567687328547061e+01
0.799773171379764,-1.803253679666943e+01,-1.750221140833374e+01
0.805000447009697,-2.112912603095571e+01,-1.970356985035524e+01
0.810227722639630,-2.566606716450924e+01,-2.197713617580566e+01
0.815454998269564,-3.126512728184561e+01,-2.302323412946745e+01
0.820682273899497,-2.786810993885735e+01,-2.171498777401246e+01
0.825909549529430,-2.299073734761429e+01,-1.939063677105482e+01
0.831136825159363,-1.981833520604144e+01,-1.720984751780684e+01
0.836364100789296,-1.762894953784056e+01,-1.540454900949453e+01
0.841591376419229,-1.604009215415227e+01,-1.394372681152380e+01
0.846818652049162,-1.486097644634596e+01,-1.276466274549136e+01
0.852045927679095,-1.398681504829500e+01,-1.181482612703022e+01
0.857273203309028,-1.335564498719324e+01,-1.105499831242775e+01
0.862500478938961,-1.292924895977020e+01,-1.045629991298477e+01
0.867727754568895,-1.268393482755593e+01,-9.997119265284944e+00
0.872955030198828,-1.260581158654907e+01,-9.660756404131789e+00
0.878182305828761,-1.268836324821959e+01,-9.433660365603334e+00
0.883409581458694,-1.293136897292794e+01,-9.304027985940818e+00
0.888636857088627,-1.334077961155831e+01,-9.260566808867933e+00
0.893864132718560,-1.392947174425362e+01,-9.291274723483250e+00
0.899091408348493,-1.471903658599035e+01,-9.382148006372390e+00
0.904318683978426,-1.574299393840023e+01,-9.515826932163447e+00
0.909545959608359,-1.705195384631845e+01,-9.670369814096166e+00
0.914773235238292,-1.872027543099820e+01,-9.818644590983412e+00
0.920000510868226,-2.084484846859971e+01,-9.929173537782320e+00
0.925227786498159,-2.346410237478009e+01,-9.969350147046921e+00
0.930455062128092,-2.599125322864650e+01,-9.911220146512001e+00
0.935682337758025,-2.613765289847038e+01,-9.738274200818010e+00
0.940909613387958,-2.367010638340816e+01,-9.450045173226712e+00
0.946136889017891,-2.095651186462273e+01,-9.061775891111415e+00
0.951364164647824,-1.872073548839353e+01,-8.599341007134671e+00
0.956591440277757,-1.694413561080851e+01,-8.092345983844313e+00
0.961818715907690,-1.552680484398403e+01,-7.568494850132844e+00
0.967045991537623,-1.438899353263033e+01,-7.050553573897629e+00
0.972273267167557,-1.347480551094001e+01,-6.555576136176956e+00
0.977500542797490,-1.274541359286405e+01,-6.095443534714126e+00
0.982727818427423,-1.217344456728439e+01,-5.677898130631980e+00
0.987955094057356,-1.173925329957421e+01,-5.307599749811943e+00
0.993182369687289,-1.142852332785686e+01,-4.987005309424567e+00
0.998409645317222,-1.123069479042858e+01,-4.717027511139444e+00
1.003636920947160,-1.113789126439489e+01,-4.497493833704461e+00
1.008864196577090,-1.114413505385279e+01,-4.327445755648627e+00
1.014091472207020,-1.124470604598693e+01,-4.205316782236511e+00
1.019318747836950,-1.143552769580442e+01,-4.129020270273520e+00
1.024546023466890,-1.171246494191198e+01,-4.095970273085218e+00
1.029773299096820,-1.207039835436168e+01,-4.103052939685575e+00
1.035000574726750,-1.250190390706751e+01,-4.146563151656933e+00
1.040227850356690,-1.299534231705044e+01,-4.222121328519269e+00
1.045455125986620,-1.353221873815105e+01,-4.324588753513283e+00
1.050682401616550,-1.408398936081080e+01,-4.448006107182753e+00
1.055909677246490,-1.460936785153691e+01,-4.585588028975259e+00
1.061136952876420,-1.505477497788994e+01,-4.729813708166366e+00
1.066364228506350,-1.536186226053261e+01,-4.872654717107386e+00
1.071591504136290,-1.548377794218604e+01,-5.005969652178759e+00
1.076818779766220,-1.540374111837952e+01,-5.122064551604586e+00
1.082046055396150,-1.514264901797052e+01,-5.214368660741018e+00
1.087273331026080,-1.474913939749954e+01,-5.278119191240109e+00
1.092500606656020,-1.428055855714519e+01,-5.310911065342299e+00
1.097727882285950,-1.378775699046399e+01,-5.312974738124150e+00
1.102955157915880,-1.330875999051124e+01,-5.287106176464085e+00
1.108182433545820,-1.286895186478948e+01,-5.238267321115537e+00
1.113409709175750,-1.248390359712881e+01,-5.172961360687058e+00
1.118636984805680,-1.216245127668801e+01,-5.098528717044434e+00
1.123864260435620,-1.190913762459475e+01,-5.022497573956266e+00
1.129091536065550,-1.172590298651726e+01,-4.952074933354139e+00
1.134318811695480,-1.161317086743171e+01,-4.893808428924463e+00
1.139546087325420,-1.157050463168624e+01,-4.853406187879811e+00
1.144773362955350,-1.159697348624189e+01,-4.835679165794497e+00
1.150000638585280,-1.169131835917212e+01,-4.844564674417951e+00
1.155227914215220,-1.185196879078625e+01,-4.883194450066640e+00
1.160455189845150,-1.207693187563068e+01,-4.953979310419244e+00
1.165682465475080,-1.236355122021351e+01,-5.058691227916513e+00
1.170909741105010,-1.270811608654802e+01,-5.198530673810512e+00
1.176137016734950,-1.310528977260228e+01,-5.374171937305512e+00
1.181364292364880,-1.354732930934759e+01,-5.585782091291231e+00
1.186591567994810,-1.402310367809100e+01,-5.833010923491329e+00
1.191818843624750,-1.451701720571640e+01,-6.114950116491861e+00
1.197046119254680,-1.500814806675877e+01,-6.430060917343412e+00
1.202273394884610,-1.547022220497390e+01,-6.776071251469899e+00
1.207500670514550,-1.587331936746540e+01,-7.149846629744722e+00
1.212727946144480,-1.618804878786975e+01,-7.547245360961328e+00
1.217955221774410,-1.639184358179934e+01,-7.962978576525268e+00
1.223182497404350,-1.647519148548649e+01,-8.390509828554407e+00
1.228409773034280,-1.644458907238957e+01,-8.822046080630788e+00
1.233637048664210,-1.632043176246815e+01,-9.248686565115840e+00
1.238864324294140,-1.613113164273371e+01,-9.660797694211610e+00
1.244091599924080,-1.590662319506188e+01,-1.004865627307873e+01
1.249318875554010,-1.567374058744094e+01,-1.040333813705623e+01
1.254546151183940,-1.545411337735461e+01,-1.071773083584451e+01
1.259773426813880,-1.526395863017775e+01,-1.098745270331076e+01
1.265000702443810,-1.511485443058587e+01,-1.121142463668764e+01
1.270227978073740,-1.501481660839369e+01,-1.139190881910467e+01
1.275455253703680,-1.496932213352577e+01,-1.153398619564356e+01
1.280682529333610,-1.498214783780880e+01,-1.164461586182320e+01
1.285909804963540,-1.505600967672780e+01,-1.173151885655603e+01
1.291137080593480,-1.519303382459821e+01,-1.180212183968422e+01
1.296364356223410,-1.539510166287894e+01,-1.186271354525640e+01
1.301591631853340,-1.566410731860284e+01,-1.191786800745723e+01
1.306818907483280,-1.600215912783771e+01,-1.197011814414617e+01
1.312046183113210,-1.641174942958020e+01,-1.201983537854168e+01
1.317273458743140,-1.689591173082364e+01,-1.206527695830669e+01
1.322500734373070,-1.745838057317152e+01,-1.210278542336148e+01
1.327728010003010,-1.810376684778331e+01,-1.212714739208731e+01
1.332955285632940,-1.883775877143547e+01,-1.213212728031546e+01
1.338182561262870,-1.966735400938679e+01,-1.211117531862317e+01
1.343409836892810,-2.060111629595231e+01,-1.205826542633003e+01
1.348637112522740,-2.164941744652119e+01,-1.196875805420118e+01
1.353864388152670,-2.282453978984180e+01,-1.184013325832737e+01
1.359091663782610,-2.414028813816504e+01,-1.167243392479840e+01
1.364318939412540,-2.561016573691739e+01,-1.146831663148557e+01
1.369546215042470,-2.724161958935338e+01,-1.123271184320679e+01
1.374773490672410,-2.902008147530818e+01,-1.097219965441159e+01
1.380000766302340,-3.086957378830865e+01,-1.069426538803020e+01
1.385228041932270,-3.257881963545749e+01,-1.040659382305203e+01
1.390455317562200,-3.376284149441564e+01,-1.011650903595335e+01
1.395682593192140,-3.409764549022733e+01,-9.830601830105746e+00
1.400909868822070,-3.370246858764862e+01,-9.554534931902460e+00
1.406137144452000,-3.298738727146783e+01,-9.292987816666061e+00
1.411364420081940,-3.226493133403864e+01,-9.049695453902226e+00
1.416591695711870,-3.167481439422967e+01,-8.827540380197661e+00
1.421818971341800,-3.125899070288985e+01,-8.628667732269442e+00
1.427046246971740,-3.101883883548225e+01,-8.454603339505036e+00
1.432273522601670,-3.093986568540462e+01,-8.306363457278273e+00
1.437500798231600,-3.099921467642957e+01,-8.184550702145350e+00
1.442728073861540,-3.116525453280710e+01,-8.089434536626008e+00
1.447955349491470,-3.139333033592070e+01,-8.021016811056501e+00
1.453182625121400,-3.162073681571967e+01,-7.979083946486025e+00
1.458409900751330,-3.176633861795004e+01,-7.963247757508105e+00
1.463637176381270,-3.174322874772164e+01,-7.972976957795463e+00
1.468864452011200,-3.148773135599848e+01,-8.007621247465989e+00
1.474091727641130,-3.098905000232510e+01,-8.066429657141935e+00
1.479319003271070,-3.029255620617308e+01,-8.148564574721345e+00
1.484546278901000,-2.947313107515857e+01,-8.253112631628589e+00
1.489773554530930,-2.860370923722176e+01,-8.379093380557917e+00
1.495000830160870,-2.773884685710192e+01,-8.525466450585608e+00
1.500228105790800,-2.691291227504785e+01,-8.691137606690056e+00
1.505455381420730,-2.614468202477415e+01,-8.874963856561614e+00
1.510682657050670,-2.544268068213327e+01,-9.075757427602637e+00
1.515909932680600,-2.480926924584700e+01,-9.292288076150017e+00
1.521137208310530,-2.424331716647808e+01,-9.523282793399531e+00
1.526364483940470,-2.374181722584954e+01,-9.767421555574765e+00
1.531591759570400,-2.330081809642377e+01,-1.002332736451694e+01
1.536819035200330,-2.291594523969806e+01,-1.028954849635568e+01
1.542046310830260,-2.258268249963519e+01,-1.056453070554761e+01
1.547273586460200,-2.229651843003322e+01,-1.084657723933778e+01
1.552500862090130,-2.205301876364790e+01,-1.113379506612397e+01
1.557728137720060,-2.184786098470448e+01,-1.142402692201294e+01
1.562955413350000,-2.167685197529423e+01,-1.171477089180252e+01
1.568182688979930,-2.153594077793827e+01,-1.200309254126490e+01
1.573409964609860,-2.142123299819421e+01,-1.228553931698306e+01
1.578637240239800,-2.132900973246333e+01,-1.255807298204708e+01
1.583864515869730,-2.125575131598801e+01,-1.281604263070747e+01
1.589091791499660,-2.119816425078534e+01,-1.305422666841133e+01
1.594319067129600,-2.115320827360170e+01,-1.326697401875970e+01
1.599546342759530,-2.111811969877212e+01,-1.344846849128853e+01
1.604773618389460,-2.109042701907173e+01,-1.359312167378644e+01
1.610000894019390,-2.106795533958891e+01,-1.369606801594121e+01
1.615228169649330,-2.104881752692236e+01,-1.375369682204725e+01
1.620455445279260,-2.103139181530286e+01,-1.376412366116079e+01
1.625682720909190,-2.101428773421106e+01,-1.372749595111623e+01
1.630909996539130,-2.099630424781672e+01,-1.364605530913053e+01
1.636137272169060,-2.097638556775390e+01,-1.352393728880005e+01
1.641364547798990,-2.095358093498762e+01,-1.336675512013628e+01
