theta,HH,VV
0.000000000000000,3.433615988368052e+01,3.433615988368041e+01
0.005227275629933,3.431707654121427e+01,3.431627597953509e+01
0.010454551259866,3.425975466508137e+01,3.425654079629986e+01
0.015681826889799,3.416397737277038e+01,3.415670214842170e+01
0.020909102519732,3.402937868297904e+01,3.401633373063527e+01
0.026136378149666,3.385543654949866e+01,3.383482581742724e+01
0.031363653779599,3.364146269240558e+01,3.361137160201911e+01
0.036590929409532,3.338658877266209e+01,3.334494846733420e+01
0.041818205039465,3.308974826782140e+01,3.303429317279806e+01
0.047045480669398,3.274965316455339e+01,3.267786953199001e+01
0.052272756299331,3.236476426368333e+01,3.227382659707113e+01
0.057500031929264,3.193325345999361e+01,3.181994458101412e+01
0.062727307559197,3.145295575991642e+01,3.131356462068301e+01
0.067954583189130,3.092130795651773e+01,3.075149682614495e+01
0.073181858819063,3.033526967142478e+01,3.012989856946911e+01
0.078409134448996,2.969122070705232e+01,2.944411112834356e+01
0.083636410078930,2.898482602475362e+01,2.868843673226885e+01
0.088863685708863,2.821085567736277e+01,2.785582818288578e+01
0.094090961338796,2.736294084726209e+01,2.693744660740685e+01
0.099318236968729,2.643323735826754e+01,2.592201389125614e+01
0.104545512598662,2.541195218152933e+01,2.479483341685259e+01
0.109772788228595,2.428666219933753e+01,2.353625116209852e+01
0.115000063858528,2.304131011990325e+01,2.211912202493337e+01
0.120227339488461,2.165468660009670e+01,2.050439115508836e+01
0.125454615118394,2.009807974140406e+01,1.863280372782369e+01
0.130681890748328,1.833157695407308e+01,1.640778075909505e+01
0.135909166378261,1.629833229454460e+01,1.365500460153415e+01
0.141136442008194,1.391686757827399e+01,1.000590755665737e+01
0.146363717638127,1.107960991750911e+01,4.421988221617202e+00
0.151590993268060,7.726629059141708e+00,-9.704683768386319e+00
0.156818268897993,4.415479488610822e+00,-1.188285343967901e+00
0.162045544527926,3.539022702275542e+00,5.543757457410916e+00
0.167272820157859,5.389885629078540e+00,8.799259842509136e+00
0.172500095787792,7.454738439093129e+00,1.076971681340591e+01
0.177727371417725,8.995973607786611e+00,1.204225773995566e+01
0.182954647047658,1.004000988785549e+01,1.285859395876911e+01
0.188181922677592,1.068602497033491e+01,1.333904564113918e+01
0.193409198307525,1.100760670275382e+01,1.354919442248261e+01
0.198636473937458,1.105097176393075e+01,1.352525245942089e+01
0.203863749567391,1.084230768276264e+01,1.328501270076339e+01
0.209091025197324,1.039368192501465e+01,1.283257113048646e+01
0.214318300827257,9.707931365054588e+00,1.215965990508166e+01
0.219545576457190,8.785568068618007e+00,1.124444710040028e+01
0.224772852087123,7.640961579875225e+00,1.004766661489857e+01
0.230000127717056,6.345356600894744e+00,8.505499496964624e+00
0.235227403346989,5.123855988945288e+00,6.520846938178160e+00
0.240454678976923,4.449824764380656e+00,3.977650689677787e+00
0.245681954606856,4.779202046936542e+00,9.807622604555023e-01
0.250909230236789,5.973364863851389e+00,-8.408638754113762e-01
0.256136505866722,7.504984341122381e+00,8.737936456051838e-01
0.261363781496655,9.011445315553486e+00,3.811709765468479e+00
0.266591057126588,1.035611205274039e+01,6.311158917706639e+00
0.271818332756521,1.151050034855001e+01,8.262288632838203e+00
0.277045608386454,1.248285784318904e+01,9.785488988814965e+00
0.282272884016387,1.329059158173551e+01,1.098388463608171e+01
0.287500159646321,1.395118659625535e+01,1.192839893053377e+01
0.292727435276254,1.447965317005508e+01,1.266694951487809e+01
0.297954710906187,1.488812086742107e+01,1.323237122917475e+01
0.303181986536120,1.518606927326659e+01,1.364749483428127e+01
0.308409262166053,1.538068848001054e+01,1.392826597683211e+01
0.313636537795986,1.547720806472127e+01,1.408565982173652e+01
0.318863813425919,1.547915127659278e+01,1.412685307947241e+01
0.324091089055852,1.538850962145444e+01,1.405591644462113e+01
0.329318364685785,1.520584381873678e+01,1.387417077149483e+01
0.334545640315718,1.493031894295426e+01,1.358027556991597e+01
0.339772915945652,1.455968194134381e+01,1.317006454020802e+01
0.345000191575585,1.409019318572579e+01,1.263609273112285e+01
0.350227467205518,1.351653636118377e+01,1.196679707929767e+01
0.355454742835451,1.283176584587196e+01,1.114507345377150e+01
0.360682018465384,1.202743908112129e+01,1.014589714087314e+01
0.365909294095317,1.109430026204578e+01,8.932277636696032e+00
0.371136569725250,1.002441934827321e+01,7.448189701883438e+00
0.376363845355183,8.816980210254240e+00,5.606019904338989e+00
0.381591120985116,7.492725441119679e+00,3.265925105390173e+00
0.386818396615049,6.126247394080197e+00,2.259282004800804e-01
0.392045672244982,4.900393769433638e+00,-3.478034228550397e+00
0.397272947874916,4.128957619329575e+00,-5.204261605219294e+00
0.402500223504849,4.090092948249802e+00,-2.333024849547418e+00
0.407727499134782,4.737566014654931e+00,9.739287249222488e-01
0.412954774764715,5.756388034707129e+00,3.506684839428789e+00
0.418182050394648,6.860160899416301e+00,5.422131903423930e+00
0.423409326024581,7.898544245120852e+00,6.903290500495586e+00
0.428636601654514,8.815216270421173e+00,8.068513924873230e+00
0.433863877284447,9.597665004065535e+00,8.992628171221082e+00
0.439091152914380,1.025025031047043e+01,9.724513575184883e+00
0.444318428544314,1.078257913088708e+01,1.029725955286110e+01
0.449545704174247,1.120495022386000e+01,1.073391318342095e+01
0.454772979804180,1.152673134330464e+01,1.105082696341758e+01
0.460000255434113,1.175589801683559e+01,1.125967492877044e+01
0.465227531064046,1.189901021806065e+01,1.136869928424832e+01
0.470454806693979,1.196133614897106e+01,1.138348982358493e+01
0.475682082323912,1.194700884914323e+01,1.130746249822104e+01
0.480909357953845,1.185917332216124e+01,1.114212892533672e+01
0.486136633583778,1.170011117820711e+01,1.088720453185941e+01
0.491363909213711,1.147134166020798e+01,1.054057345040943e+01
0.496591184843645,1.117370284610794e+01,1.009810387385431e+01
0.501818460473578,1.080741937375012e+01,9.553281206471340e+00
0.507045736103511,1.037216547427970e+01,8.896589947547499e+00
0.512273011733444,9.867135955574637e+00,8.114515982476867e+00
0.517500287363377,9.291144705444577e+00,7.187934281658720e+00
0.522727562993310,8.642782738414045e+00,6.089441282357962e+00
0.527954838623243,7.920689788052833e+00,4.778771931851483e+00
0.533182114253176,7.124031323858230e+00,3.194550763454895e+00
0.538409389883109,6.253335634250741e+00,1.238749346583736e+00
0.543636665513042,5.311941515599811e+00,-1.252690691228779e+00
0.548863941142976,4.308426796410429e+00,-4.547873923847599e+00
0.554091216772909,3.260447397271960e+00,-8.756844276474760e+00
0.559318492402842,2.200111711632081e+00,-1.057302580198795e+01
0.564545768032775,1.179605803884365e+00,-6.995704369602752e+00
0.569773043662708,2.723625418345354e-01,-3.473185025885208e+00
0.575000319292641,-4.388899037281989e-01,-9.004234556533240e-01
0.580227594922574,-8.919099553564167e-01,1.012885948688756e+00
0.585454870552507,-1.077597087965905e+00,2.481221037806790e+00
0.590682146182440,-1.046100706877951e+00,3.631622031159250e+00
0.595909421812373,-8.799927942085161e-01,4.541624512011176e+00
0.601136697442307,-6.607412574473815e-01,5.260949004110671e+00
0.606363973072240,-4.508428425367009e-01,5.822862583278539e+00
0.611591248702173,-2.918302376259769e-01,6.250337627078821e+00
0.616818524332106,-2.093082336466129e-01,6.559555585872774e+00
0.622045799962039,-2.188432408289916e-01,6.761988124388094e+00
0.627273075591972,-3.305588375418361e-01,6.865673223975953e+00
0.632500351221905,-5.523007446270485e-01,6.876009301772488e+00
0.637727626851838,-8.918134673768867e-01,6.796242112483619e+00
0.642954902481771,-1.358411294082332e+00,6.627739817126413e+00
0.648182178111704,-1.964566911146264e+00,6.370105441242049e+00
0.653409453741638,-2.727842614519737e+00,6.021145284246288e+00
0.658636729371571,-3.673736701600863e+00,5.576686536742406e+00
0.663864005001504,-4.840454781042610e+00,5.030209642493388e+00
0.669091280631437,-6.287737646707275e+00,4.372221677694857e+00
0.674318556261370,-8.114906332449674e+00,3.589230863384454e+00
0.679545831891303,-1.050250339359330e+01,2.662057763323666e+00
0.684773107521236,-1.382461770617062e+01,1.562963012354467e+00
0.690000383151169,-1.899442338467191e+01,2.504991217255609e-01
0.695227658781102,-2.586038349964413e+01,-1.340423478007015e+00
0.700454934411035,-1.979516516741833e+01,-3.319761606451699e+00
0.705682210040968,-1.462563947765540e+01,-5.894809453870010e+00
0.710909485670902,-1.142402210769552e+01,-9.532904578315133e+00
0.716136761300835,-9.201768235482572e+00,-1.572930729951834e+01
0.721364036930768,-7.556633124596673e+00,-3.636291251688385e+01
0.726591312560701,-6.296304061542346e+00,-1.575436492638547e+01
0.731818588190634,-5.315231378847023e+00,-1.004743582337462e+01
0.737045863820567,-4.549624757066209e+00,-6.794334028345467e+00
0.742273139450500,-3.958182755592895e+00,-4.575250147991142e+00
0.747500415080433,-3.512769690674014e+00,-2.937233691610379e+00
0.752727690710366,-3.193459571346036e+00,-1.676931941359499e+00
0.757954966340299,-2.985689684080637e+00,-6.852265700959160e-01
0.763182241970233,-2.878504432258287e+00,1.034117292938112e-01
0.768409517600166,-2.863381347095577e+00,7.315569908056946e-01
0.773636793230099,-2.933357158375067e+00,1.228541174065618e+00
0.778864068860032,-3.082272695223744e+00,1.615516106218708e+00
0.784091344489965,-3.303994727072352e+00,1.908295204804797e+00
0.789318620119898,-3.591479039791098e+00,2.119037601381545e+00
0.794545895749831,-3.935531398719962e+00,2.257283317305464e+00
0.799773171379764,-4.323131341142078e+00,2.330601103863100e+00
0.805000447009697,-4.735273682292307e+00,2.344991817723871e+00
0.810227722639630,-5.144585018842541e+00,2.305129769827509e+00
0.815454998269564,-5.513663042127719e+00,2.214492419754717e+00
0.820682273899497,-5.796147116171384e+00,2.075411242575751e+00
0.825909549529430,-5.943115896591829e+00,1.889066668464030e+00
0.831136825159363,-5.915495942693909e+00,1.655444002578091e+00
0.836364100789296,-5.697798193588477e+00,1.373263173687131e+00
0.841591376419229,-5.304276530344778e+00,1.039892172127191e+00
0.846818652049162,-4.772689131119082e+00,6.512523911977642e-01
0.852045927679095,-4.150523039697655e+00,2.017256647604443e-01
0.857273203309028,-3.482581593820444e+00,-3.159175859031735e-01
0.862500478938961,-2.804585058958209e+00,-9.105209852214660e-01
0.867727754568895,-2.142078973113820e+00,-1.592354349861874e+00
0.872955030198828,-1.512050042301182e+00,-2.372436980424566e+00
0.878182305828761,-9.252424348300071e-01,-3.260653537118298e+00
0.883409581458694,-3.882255712812576e-01,-4.260974187178609e+00
0.888636857088627,9.504977060814358e-02,-5.360044603504872e+00
0.893864132718560,5.221733635322134e-01,-6.502328784606459e+00
0.899091408348493,8.915590213230141e-01,-7.547089550058433e+00
0.904318683978426,1.201975904540443e+00,-8.237933440108829e+00
0.909545959608359,1.452239789846423e+00,-8.299559866117910e+00
0.914773235238292,1.641002388741039e+00,-7.685043441304106e+00
0.920000510868226,1.766596537960444e+00,-6.631585116499123e+00
0.925227786498159,1.826908426258701e+00,-5.426169354876144e+00
0.930455062128092,1.819256339821991e+00,-4.249522128449026e+00
0.935682337758025,1.740260133705315e+00,-3.183226480975385e+00
0.940909613387958,1.585687935118636e+00,-2.255575465037273e+00
0.946136889017891,1.350267492470728e+00,-1.472068249819979e+00
0.951364164647824,1.027450483015822e+00,-8.301186269779002e-01
0.956591440277757,6.091218305502187e-01,-3.254037557401493e-01
0.961818715907690,8.525983235182553e-02,4.550720202434103e-02
0.967045991537623,-5.564041548912363e-01,2.840605745300131e-01
0.972273267167557,-1.330552734386932e+00,3.892125153062930e-01
0.977500542797490,-2.253746886946977e+00,3.571131631012824e-01
0.982727818427423,-3.341650848378179e+00,1.808453015249859e-01
0.987955094057356,-4.599668471341041e+00,-1.497278358428151e-01
0.993182369687289,-5.995485221148227e+00,-6.476424085893444e-01
0.998409645317222,-7.390412543680855e+00,-1.326893091279514e+00
1.003636920947160,-8.431780558809235e+00,-2.195526474065098e+00
1.008864196577090,-8.619366480444615e+00,-3.234518780130153e+00
1.014091472207020,-7.818311736617964e+00,-4.341075567191590e+00
1.019318747836950,-6.450655853331283e+00,-5.219010900405332e+00
1.024546023466890,-4.966432404904332e+00,-5.355544968908049e+00
1.029773299096820,-3.583820495757273e+00,-4.455829901135308e+00
1.035000574726750,-2.369447301050312e+00,-2.849819447074450e+00
1.040227850356690,-1.329760587393503e+00,-1.040526042311875e+00
1.045455125986620,-4.525716871053701e-01,6.955256424100388e-01
1.050682401616550,2.780262284568846e-01,2.266890523497324e+00
1.055909677246490,8.769787654042348e-01,3.660279283448361e+00
1.061136952876420,1.357190095821625e+00,4.887401204322791e+00
1.066364228506350,1.729667357706747e+00,5.965454316941305e+00
1.071591504136290,2.004084939507196e+00,6.910861567807782e+00
1.076818779766220,2.189527156487215e+00,7.737619652654837e+00
1.082046055396150,2.295373367637850e+00,8.457154095212591e+00
1.087273331026080,2.332361411846046e+00,9.078608781564277e+00
1.092500606656020,2.313867562714864e+00,9.609210651257182e+00
1.097727882285950,2.257367428055848e+00,1.005459803865725e+01
1.102955157915880,2.185845479747434e+00,1.041908635565980e+01
1.108182433545820,2.128554990705584e+00,1.070587264379405e+01
1.113409709175750,2.120069726496137e+00,1.091718823669673e+01
1.118636984805680,2.196423301648673e+00,1.105440980866692e+01
1.123864260435620,2.388070862837552e+00,1.111813842107773e+01
1.129091536065550,2.711735581528372e+00,1.110825581880438e+01
1.134318811695480,3.165319393769204e+00,1.102396830128075e+01
1.139546087325420,3.729130798213426e+00,1.086385222727395e+01
1.144773362955350,4.372633147177508e+00,1.062592368563154e+01
1.150000638585280,5.062674918947980e+00,1.030777199750235e+01
1.155227914215220,5.769565216020669e+00,9.906829970147861e+00
1.160455189845150,6.469873204021851e+00,9.420917044195225e+00
1.165682465475080,7.146725858713163e+00,8.849308702937311e+00
1.170909741105010,7.788842925480044e+00,8.194791518509296e+00
1.176137016734950,8.389216591023674e+00,7.467479201434707e+00
1.181364292364880,8.943893307857589e+00,6.691469326007395e+00
1.186591567994810,9.451011985017079e+00,5.915003105426409e+00
1.191818843624750,9.910104846617974e+00,5.221443777438600e+00
1.197046119254680,1.032161447083071e+01,4.728983151012532e+00
1.202273394884610,1.068657229507950e+01,4.557709014960070e+00
1.207500670514550,1.100639187028063e+01,4.764324164068710e+00
1.212727946144480,1.128274158337808e+01,5.301846826941874e+00
1.217955221774410,1.151747174387265e+01,6.053613644849587e+00
1.223182497404350,1.171257867115160e+01,6.899455673287639e+00
1.228409773034280,1.187019384063729e+01,7.752605678647391e+00
1.233637048664210,1.199258970624337e+01,8.562214490421072e+00
1.238864324294140,1.208219596942512e+01,9.302740437708824e+00
1.244091599924080,1.214162117095988e+01,9.963502946258572e+00
1.249318875554010,1.217367481017103e+01,1.054170291953132e+01
1.254546151183940,1.218138496738814e+01,1.103839241954416e+01
1.259773426813880,1.216800584044257e+01,1.145630287817678e+01
1.265000702443810,1.213700898013627e+01,1.179872245819213e+01
1.270227978073740,1.209205169201874e+01,1.206893816744029e+01
1.275455253703680,1.203691653247845e+01,1.226997519905975e+01
1.280682529333610,1.197541758016710e+01,1.240449066986681e+01
1.285909804963540,1.191127261865446e+01,1.247474680442585e+01
1.291137080593480,1.184794558798902e+01,1.248262492902070e+01
1.296364356223410,1.178847010623099e+01,1.242966115589523e+01
1.301591631853340,1.173527122674011e+01,1.231709540843482e+01
1.306818907483280,1.169000699136583e+01,1.214593178053052e+01
1.312046183113210,1.165345185388388e+01,1.191701248139155e+01
1.317273458743140,1.162543960234040e+01,1.163111111180838e+01
1.322500734373070,1.160487446974979e+01,1.128905453187203e+01
1.327728010003010,1.158980780474010e+01,1.089188655673517e+01
1.332955285632940,1.157756703098163e+01,1.044109123721784e+01
1.338182561262870,1.156491643469550e+01,9.938897974164911e+00
1.343409836892810,1.154822702137272e+01,9.388693250289531e+00
1.348637112522740,1.152363500932728e+01,8.795559721920551e+00
1.353864388152670,1.148717392434427e+01,8.166943469241950e+00
1.359091663782610,1.143487171858885e+01,7.513398498875218e+00
1.364318939412540,1.136281015997339e+01,6.849253830055075e+00
1.369546215042470,1.126714792987504e+01,6.192883216103608e+00
1.374773490672410,1.114411113945070e+01,5.566073398177307e+00
1.380000766302340,1.098995552118860e+01,4.991938738730786e+00
1.385228041932270,1.080090376943351e+01,4.491182032717927e+00
1.390455317562200,1.057305977110556e+01,4.077395833576453e+00
1.395682593192140,1.030229901463145e+01,3.753125476891420e+00
1.400909868822070,9.984131297934285e+00,3.508591134221088e+00
1.406137144452000,9.613527704007033e+00,3.323728807169192e+00
1.411364420081940,9.184698030432543e+00,3.172411243760797e+00
1.416591695711870,8.690796219241616e+00,3.026848010033326e+00
1.421818971341800,8.123517571298514e+00,2.860677818071158e+00
1.427046246971740,7.472528372809103e+00,2.650333775406033e+00
1.432273522601670,6.724627598015277e+00,2.375003155495979e+00
1.437500798231600,5.862464123127015e+00,2.015696804669437e+00
1.442728073861540,4.862482888261599e+00,1.553800440457247e+00
1.447955349491470,3.691458505088665e+00,9.692321064524958e-01
1.453182625121400,2.300259984106563e+00,2.380692550377479e-01
1.458409900751330,6.117046936056612e-01,-6.707989251476922e-01
1.463637176381270,-1.505668770557428e+00,-1.800935986001300e+00
1.468864452011200,-4.302520829458803e+00,-3.217481649256277e+00
1.474091727641130,-8.339451084029324e+00,-5.024199362246727e+00
1.479319003271070,-1.496576351321859e+01,-7.395926783778650e+00
1.484546278901000,-1.638513873291376e+01,-1.062024573989943e+01
1.489773554530930,-9.488220992799656e+00,-1.476533110880755e+01
1.495000830160870,-5.374340443238561e+00,-1.593765099468418e+01
1.500228105790800,-2.652325210550574e+00,-1.192599722718067e+01
1.505455381420730,-6.744145105194304e-01,-8.281054023735399e+00
1.510682657050670,8.400066381388777e-01,-5.595049982536466e+00
1.515909932680600,2.034304485941544e+00,-3.554487439086063e+00
1.521137208310530,2.990848897110841e+00,-1.947184761497597e+00
1.526364483940470,3.761041062805921e+00,-6.480520099157983e-01
1.531591759570400,4.378958685734466e+00,4.200354244695595e-01
1.536819035200330,4.868267360172409e+00,1.307478108226377e+00
1.542046310830260,5.246031903159051e+00,2.048982093125075e+00
1.547273586460200,5.524972538073650e+00,2.669546520890515e+00
1.552500862090130,5.714889889386888e+00,3.187894384761031e+00
1.557728137720060,5.823627090011358e+00,3.618538274264515e+00
1.562955413350000,5.857770928747668e+00,3.973078251683553e+00
1.568182688979930,5.823211169664580e+00,4.261046224102029e+00
1.573409964609860,5.725633364403805e+00,4.490470122000945e+00
1.578637240239800,5.570994597900151e+00,4.668257451012615e+00
1.583864515869730,5.366011697058428e+00,4.800457606081220e+00
1.589091791499660,5.118668437235392e+00,4.892439733330312e+00
1.594319067129600,4.838713566939178e+00,4.949009964144335e+00
1.599546342759530,4.538067567029208e+00,4.974484408981354e+00
1.604773618389460,4.230982519945506e+00,4.972730123428494e+00
1.610000894019390,3.933725879483858e+00,4.947184006704730e+00
1.615228169649330,3.663540790017505e+00,4.900858389862480e+00
1.620455445279260,3.436760947439343e+00,4.836341295803777e+00
1.625682720909190,3.266286440606898e+00,4.755798553748755e+00
1.630909996539130,3.159069239002947e+00,4.660983831849705e+00
1.636137272169060,3.114517669165646e+00,4.553261088584140e+00
1.641364547798990,3.124499318889506e+00,4.433641986147050e+00
1.646591823428930,3.174938727328099e+00,4.302838653039005e+00
1.651819099058860,3.248326050480820e+00,4.161330105484472e+00
1.657046374688790,3.326229014497629e+00,4.009438911990376e+00
1.662273650318730,3.391165632022761e+00,3.847413506639757e+00
